Start Time [s],End Time [s],Duration [s]
4.84480464,4.84494656,0.00014191999999990657
5.34494944,5.34509504,0.0001456000000006341
5.84507744,5.845216,0.00013855999999989876
6.34521424,6.34536768,0.0001534400000000602
6.84534848,6.84548656,0.00013808000000015141
7.34547568,7.34561792,0.00014223999999973813
7.84558816,7.84572224,0.0001340799999995923
8.34576032,8.34596224,0.00020192000000029964
9.34611088,9.34627648,0.00016560000000076514
9.84631952,9.8465,0.00018048000000092657
10.34653424,10.34671408,0.00017983999999948708
10.84672464,10.8469008,0.0001761600000005359
11.34693808,11.34712736,0.00018928000000073553
11.84715952,11.84734928,0.0001897599999995947
12.3473784,12.34756208,0.00018367999999924223
12.84757808,12.84775648,0.00017839999999935685
13.34778384,13.34796704,0.00018320000000038306
13.84799632,13.84818192,0.00018560000000000798
14.34821168,14.34839824,0.00018655999999950268
14.8484248,14.84860512,0.0001803200000001226
15.3486448,15.34883376,0.0001889599999991276
15.84885536,15.84904496,0.0001896000000005671
16.34908336,16.34928352,0.0002001599999985615
16.84931264,16.84950256,0.00018992000000039866
17.34952752,17.34971488,0.00018736000000174613
17.84974624,17.84996784,0.00022159999999971092
18.34998896,18.35018976,0.00020079999999822462
18.85023552,18.85042656,0.00019104000000069732
19.3504512,19.35063072,0.00017952000000320822
19.85067296,19.85085376,0.00018079999999898178
20.35088592,20.35106848,0.00018255999999894357
20.85108416,20.8512632,0.0001790400000025727
21.35130016,21.35149584,0.00019567999999736685
21.8515088,21.85168784,0.00017903999999901998
22.35170816,22.35188544,0.0001772799999990582
22.85188928,22.85206512,0.0001758399999971516
23.35209072,23.3522728,0.00018208000000186075
23.85232064,23.85251072,0.00019008000000297898
24.35253184,24.35270672,0.00017487999999943327
24.85272352,24.8529096,0.00018607999999886715
25.35295232,25.35313904,0.00018671999999853028
25.85314832,25.8533336,0.00018528000000017641
26.35337168,26.35357232,0.00020064000000274973
26.85359424,26.85377488,0.00018063999999995417
27.35380288,27.35397904,0.00017615999999875953
27.85398592,27.85417024,0.00018431999999890536
28.35419328,28.35438368,0.00019040000000103419
28.85440896,28.85459856,0.00018959999999879074
29.35463168,29.35479792,0.0001662399999986519
29.854808,29.8549888,0.0001808000000025345
30.35503248,30.35521744,0.0001849600000021212
30.85522816,30.85541104,0.0001828800000005515
31.3554928,31.35568944,0.0001966399999986379
31.85570992,31.85589104,0.0001811200000005897
32.35592224,32.35609904,0.00017679999999842266
32.85610752,32.8562872,0.0001796799999951304
33.35631616,33.35649792,0.00018176000000380554
33.85651424,33.85670496,0.0001907199999990894
34.35672288,34.3569088,0.00018591999999983955
34.85693056,34.85711072,0.00018015999999931864
35.35715728,35.35734544,0.00018816000000043687
35.85736848,35.85754656,0.00017808000000485436
36.35757568,36.35777088,0.00019520000000028404
36.85781376,36.8580008,0.0001870400000001382
37.35801872,37.35818848,0.00016976000000568092
37.85820256,37.85839088,0.00018831999999946447
38.35841552,38.3586016,0.00018607999999886715
38.85862368,38.85881504,0.00019136000000230524
39.35883936,39.35901104,0.0001716800000011176
39.85902304,39.85920432,0.00018128000000672273
40.35924864,40.35945824,0.000209600000005139
40.85948736,40.85966736,0.00018000000000029104
41.35971584,41.359908,0.00019215999999744326
41.85992976,41.86011264,0.00018287999999699878
42.36012736,42.36030096,0.0001735999999965543
42.86031712,42.86050128,0.00018416000000343047
43.36052912,43.36071072,0.0001815999999976725
43.86072736,43.860924,0.0001966399999986379
44.3609384,44.361112,0.0001735999999965543
44.86112768,44.861316,0.00018831999999946447
45.36135808,45.36154576,0.00018767999999624863
45.86156928,45.86174688,0.00017760000000066611
46.3617904,46.3619864,0.00019600000000252749
46.86201216,46.8621952,0.0001830400000031318
47.3622232,47.36239728,0.00017408000000074253
47.86240256,47.86258768,0.0001851199999975961
48.36261264,48.36280208,0.00018943999999976313
48.862824,48.86301584,0.00019183999999938806
49.36303136,49.36320192,0.00017056000000081895
49.86324624,49.86342544,0.0001791999999980476
50.36347536,50.36366288,0.00018751999999722102
50.86367088,50.86385232,0.0001814399999986449
51.36388944,51.3640848,0.00019535999999931164
51.86410368,51.86428688,0.0001832000000021594
52.36430688,52.36448208,0.0001752000000010412
52.86450192,52.86468464,0.00018271999999797117
53.36470976,53.36488656,0.0001768000000055281
53.86494272,53.86512928,0.00018655999999594997
54.36514896,54.36532368,0.00017472000000395838
54.86533792,54.86552368,0.00018576000000081194
55.36556752,55.36575456,0.0001870400000001382
55.86576256,55.86594144,0.00017887999999999238
56.36598016,56.36618096,0.00020080000000177733
56.86621104,56.86639072,0.0001796799999951304
57.36641296,57.3665816,0.00016864000000538226
57.866596,57.86678384,0.00018783999999527623
58.36680672,58.36699328,0.0001865600000030554
58.8670168,58.8672128,0.00019599999999542206
59.36727888,59.36745376,0.00017487999999588055
59.86747728,59.86766256,0.0001852799999966237
60.36770368,60.36789072,0.0001870400000001382
60.8679032,60.86808624,0.00018303999999602638
61.36812544,61.36832512,0.00019968000000147867
61.86834352,61.8685264,0.00018287999999699878
62.36857488,62.36875248,0.00017760000000066611
62.8687752,62.86895104,0.0001758399999971516
63.36898864,63.36917568,0.0001870400000001382
63.8692192,63.8694104,0.0001911999999961722
64.36943984,64.36962544,0.0001855999999946789
64.86964592,64.86982864,0.00018271999999797117
65.3698648,65.37005776,0.0001929599999925813
65.87007568,65.87025168,0.0001759999999961792
66.37029152,66.3704912,0.0001996800000085841
66.87051488,66.87070256,0.00018767999999624863
67.37072944,67.37090576,0.00017631999999423442
67.87091776,67.87110672,0.00018896000000268032
68.37112672,68.37131392,0.0001871999999991658
68.87135296,68.87154752,0.0001945599999970682
69.37155472,69.37171504,0.00016031999999199797
69.87173856,69.87192128,0.00018271999999797117
70.37196496,70.37214976,0.0001847999999995409
70.8721688,70.87234976,0.00018096000000866752
71.3723944,71.37260256,0.0002081599999996797
71.872628,71.87281504,0.0001870400000001382
72.3728304,72.373008,0.00017760000000066611
72.87303216,72.87321392,0.00018176000000380554
73.3732376,73.3734232,0.00018560000000888977
73.8734464,73.87363456,0.00018815999999333144
74.37364736,74.37382144,0.0001740799999936371
74.87385456,74.87404128,0.000186720000002083
75.37411552,75.37429888,0.0001833599999940816
75.87431376,75.87449744,0.0001836799999921368
76.37454752,76.37474656,0.00019904000001247368
76.87477056,76.87495168,0.00018111999999348427
77.3750232,77.37519216,0.00016895999999633204
77.87521024,77.8754048,0.0001945599999970682
78.37545392,78.37564592,0.00019199999999841566
78.875664,78.87585456,0.00019055999999295636
79.37588464,79.3760592,0.00017456000000493077
79.87608384,79.8762672,0.0001833599999940816
80.3763416,80.3765256,0.000183999999990192
80.87654016,80.87672,0.00017984000000126343
81.37676576,81.37696064,0.0001948799999951234
81.87698352,81.87716896,0.00018544000000986216
82.37719952,82.37737728,0.00017775999999969372
82.8773856,82.87757184,0.00018624000000500018
83.37761024,83.37779664,0.0001864000000040278
83.87783152,83.87802816,0.0001966399999986379
84.37804576,84.37821792,0.000172159999991095
84.87823664,84.87842032,0.00018368000000634765
85.37849056,85.37867424,0.0001836799999921368
85.87869072,85.87887328,0.00018255999999894357
86.37895168,86.37915504,0.00020336000000042986
86.87918096,86.87936208,0.00018112000000769513
87.3793872,87.379556,0.00016879999999730444
87.87956464,87.8797504,0.00018576000000791737
88.37977264,88.3799576,0.0001849599999985685
88.87998304,88.88017408,0.00019104000000425003
89.38018816,89.38035056,0.0001623999999935677
89.88036784,89.8805496,0.0001817599999895947
90.38059264,90.38077872,0.00018607999999176172
90.88079648,90.88097952,0.00018303999999602638
91.38103024,91.38123184,0.00020159999999691536
91.88125424,91.88143904,0.0001847999999995409
92.38148032,92.38166016,0.00017984000000126343
92.88166864,92.88184864,0.00018000000000029104
93.38189888,93.38208272,0.00018384000000537526
93.8821008,93.88228848,0.00018767999999624863
94.38231376,94.38248848,0.00017472000000395838
94.88250656,94.88268848,0.00018192000000283315
95.38276368,95.38297552,0.00021184000000573633
95.8830056,95.88318608,0.00018047999999737385
96.38324048,96.38343792,0.00019744000000798678
96.88346336,96.88365376,0.00019040000000813961
97.38369088,97.38385968,0.00016879999999730444
97.88387696,97.88405856,0.00018160000000477794
98.38410976,98.3842976,0.00018783999999527623
98.88432432,98.88451472,0.00019039999999392876
99.38454304,99.38471872,0.000175679999998124
99.88474528,99.88492928,0.000183999999990192
100.38500176,100.38518672,0.0001849599999985685
100.885204,100.88538352,0.00017952000000320822
101.3854296,101.38562592,0.0001963200000005827
101.8856576,101.88583616,0.00017855999999483174
102.38586688,102.38604528,0.000178400000010015
102.88605696,102.88624016,0.00018319999999505399
103.38629344,103.38647888,0.0001854399999956513
103.88650032,103.88668816,0.00018784000000948708
104.3867136,104.38690816,0.00019456000001127904
104.886944,104.88712528,0.00018128000000672273
105.38719264,105.38737648,0.00018384000000537526
105.88738384,105.88756624,0.00018239999999991596
106.38761408,106.38781392,0.00019983999999340085
106.88783616,106.88813536,0.0002992000000006101
107.38805008,107.38822432,0.00017424000000687556
107.8882352,107.8884168,0.00018160000000477794
108.38845088,108.3886384,0.00018752000001143188
108.88865392,108.8888488,0.00019488000000933425
109.38886432,109.389036,0.00017168000000822303
109.88903552,109.8892104,0.00017488000000298598
110.38925264,110.38944592,0.00019328000000484735
110.88946608,110.88965136,0.0001852799999966237
111.389692,111.38989264,0.00020064000000274973
111.88991136,111.8900936,0.00018224000000088836
112.390136,112.39031296,0.0001769600000045557
112.89032496,112.89050336,0.00017839999999580414
113.39052832,113.39070624,0.00017791999999872132
113.89072416,113.89091264,0.00018847999999138665
114.39093264,114.39110864,0.0001759999999961792
114.8911248,114.891308,0.00018319999999505399
115.39135088,115.39153552,0.00018464000000051328
115.89155024,115.8917272,0.0001769600000045557
116.39178816,116.39199184,0.00020367999999848507
116.89201168,116.8921944,0.00018271999999797117
117.3922288,117.39239376,0.00016496000000643107
117.89240128,117.89258352,0.00018224000000088836
118.39262256,118.39280944,0.00018687999998689975
118.89283456,118.89302368,0.00018912000000170792
119.39305872,119.3932272,0.00016847999999924923
119.89324544,119.8934312,0.00018575999999370651
120.39350448,120.39369488,0.00019039999999392876
120.89371056,120.89389216,0.00018159999999056708
121.3939472,121.39414672,0.00019951999999534564
121.89417184,121.89435792,0.00018608000000597258
122.39438816,122.39456352,0.0001753600000000688
122.89457664,122.89479632,0.00021968000000072152
123.39484144,123.39502432,0.00018288000001120963
123.89504368,123.89523328,0.00018959999999879074
124.39526752,124.39544912,0.00018159999999056708
124.8954712,124.89566368,0.00019247999999549847
125.39573408,125.39591744,0.00018336000000829245
125.89593216,125.89611648,0.00018432000000245807
126.39618096,126.3963816,0.00020064000000274973
126.8964056,126.8965936,0.0001880000000085147
127.39662672,127.39679936,0.00017264000000238866
127.89680752,127.896992,0.00018448000000148568
128.39702144,128.3972048,0.0001833599999940816
128.8972272,128.89741296,0.00018575999999370651
129.39744064,129.39759744,0.00015679999998496896
129.89760976,129.897792,0.0001822400000150992
130.3978336,130.3980208,0.0001871999999991658
130.89803936,130.8982192,0.00017983999998705258
131.39825392,131.39845472,0.00020079999998756648
131.89847488,131.89869984,0.00022495999999705418
132.39876128,132.3989672,0.00020591999998487154
132.8989856,132.899172,0.00018639999998981693
133.39920816,133.39939216,0.000183999999990192
133.89941776,133.89961152,0.00019376000000193017
134.39963712,134.39981328,0.00017615999999520682
134.89982848,134.90001408,0.00018560000000888977
135.40005696,135.40024928,0.00019231999999647087
135.90026656,135.9004624,0.00019584000000349988
136.40049568,136.4007016,0.00020591999998487154
136.90074688,136.90093264,0.00018575999999370651
137.40096352,137.40115552,0.00019199999999841566
137.9011696,137.90136096,0.00019136000000230524
138.40139728,138.40159616,0.00019887999999923522
138.90160464,138.90180128,0.00019664000001284876
139.40180272,139.40198528,0.0001825599999847327
139.90200192,139.90218688,0.00018495999998435764
140.40225552,140.40244624,0.00019071999997777311
140.9025624,140.90274352,0.00018112000000769513
141.4028024,141.40299952,0.00019711999999572072
141.90302096,141.90320192,0.00018095999999445667
142.40323504,142.40341296,0.00017791999999872132
142.9034272,142.90360608,0.00017887999999288695
143.4036448,143.40382496,0.0001801600000135295
143.9038448,143.90403232,0.00018751999999722102
144.40406176,144.4042368,0.00017504000001622444
144.9042544,144.90443424,0.00017983999998705258
145.4045016,145.40468432,0.00018271999999797117
145.90470416,145.904884,0.0001798400000154743
146.40493216,146.40513488,0.00020272000000431944
146.90515456,146.9053384,0.00018384000000537526
147.40540384,147.40560864,0.00020480000000588916
147.9056224,147.90581024,0.00018783999999527623
148.40584896,148.40603552,0.0001865600000030554
148.90605984,148.90625984,0.0001999999999782176
149.40627824,149.4064448,0.00016655999999670712
149.90645744,149.90664112,0.0001836799999921368
150.4067056,150.40689632,0.00019071999997777311
150.90691456,150.90709872,0.00018416000000343047
151.40713664,151.40734288,0.00020623999998292675
151.90735936,151.90754368,0.00018432000001666893
152.40757584,152.4077568,0.00018095999999445667
152.9077616,152.90794224,0.00018064000002482317
153.40796848,153.40814352,0.00017504000001622444
153.9081576,153.90834416,0.0001865600000030554
154.40835904,154.40853072,0.00017167999999401218
154.90854448,154.90872944,0.00018496000001277935
155.40878368,155.40897072,0.00018704000001434906
155.90898608,155.90916848,0.00018239999999991596
156.40920896,156.4094096,0.00020064000000274973
156.90943008,156.90961568,0.00018560000000888977
157.4096448,157.40980688,0.00016207999999551248
157.90981168,157.90999152,0.0001798400000154743
158.41001952,158.41021104,0.0001915200000155437
158.9102272,158.91044448,0.00021727999998688574
159.41056512,159.4107376,0.00017248000000336106
159.91075008,159.91093952,0.00018943999998555228
160.41101008,160.41120336,0.0001932799999906365
160.91122256,160.91140096,0.000178400000010015
161.41146176,161.4116608,0.00019903999998405197
161.91167344,161.91185408,0.00018064000002482317
162.4118856,162.412064,0.00017839999998159328
162.9120688,162.91225808,0.00018928000000073553
163.41229552,163.41247568,0.0001801600000135295
163.912492,163.91267776,0.00018576000002212822
164.41272624,164.41290224,0.00017599999998196836
164.91290848,164.9130888,0.00018031999999834625
165.41314208,165.41333056,0.00018847999999138665
165.91334288,165.9135224,0.00017952000001741908
166.41358448,166.41378928,0.00020480000000588916
166.91381056,166.91399168,0.00018112000000769513
167.41404208,167.4142144,0.0001723199999901226
167.9142552,167.91443792,0.00018271999999797117
168.41446512,168.41465408,0.00018896000000268032
168.91467024,168.91485856,0.0001883200000065699
169.41489376,169.41505888,0.00016511999999124782
169.91506704,169.915256,0.00018896000000268032
170.4152912,170.41547888,0.00018767999998203777
170.91549792,170.91567984,0.0001819199999886223
171.41572832,171.41592432,0.00019599999998831663
171.9159456,171.91612784,0.0001822400000150992
172.4161608,172.41633552,0.00017471999998974752
172.91634832,172.91653824,0.00018991999999684595
173.41657408,173.4167512,0.00017711999998937245
173.91676608,173.91695024,0.00018416000000343047
174.41698,174.417156,0.00017600000001039007
174.91716736,174.91734896,0.00018159999999056708
175.41740128,175.41758656,0.00018527999998241285
175.9176016,175.91778256,0.00018095999999445667
176.41782192,176.41802656,0.0002046399999926507
176.91804976,176.9182552,0.00020544000000199958
177.41830864,177.41847952,0.000170880000013085
177.91848752,177.91866816,0.00018063999999640146
178.41869728,178.4188848,0.00018751999999722102
178.91890672,178.9190992,0.00019248000000970933
179.41913072,179.41930224,0.00017152000000919543
179.9193248,179.91950864,0.00018384000000537526
180.4195504,180.41974464,0.00019424000001322383
180.91975664,180.91993856,0.0001819199999886223
181.41997248,181.420172,0.00019951999999534564
181.92018944,181.92036912,0.00017968000000223583
182.42038992,182.420568,0.00017808000001195978
182.92057616,182.92075696,0.00018080000000963992
183.42079776,183.42098992,0.00019216000001165412
183.92100864,183.92119232,0.0001836799999921368
184.42123296,184.42142192,0.00018896000000268032
184.92143328,184.9216128,0.00017951999998899737
185.42165472,185.4218432,0.00018848000001980836
185.92185312,185.92203232,0.00017919999999094216
186.42211472,186.42231584,0.0002011200000140434
186.92233552,186.92252304,0.00018751999999722102
187.42254608,187.42271984,0.0001737600000240036
187.92272944,187.92290576,0.00017631999998002357
188.4229408,188.42312656,0.00018575999999370651
188.92313328,188.92331728,0.000183999999990192
189.42333168,189.42349296,0.0001612800000145853
189.92349856,189.92367376,0.0001752000000010412
190.42370096,190.4238824,0.00018144000000575033
190.9238968,190.92407136,0.00017456000000493077
191.42410768,191.42429776,0.0001900800000100844
191.92430464,191.9244784,0.0001737599999955819
192.42449584,192.42467296,0.00017712000001779415
192.92466896,192.92484736,0.000178400000010015
193.42487664,193.4250576,0.00018095999999445667
193.92505824,193.92523424,0.00017600000001039007
194.42525216,194.42542432,0.00017215999997688414
194.92543904,194.9256232,0.00018416000000343047
195.42566016,195.4258464,0.00018624000000500018
195.92585536,195.92603104,0.00017567999998391315
196.42606048,196.42625296,0.00019248000000970933
196.9262576,196.92643088,0.00017327999998428822
197.42645248,197.42661312,0.0001606400000184749
197.92660496,197.92677568,0.00017071999999984655
198.42679984,198.42698656,0.00018671999998787214
198.92699872,198.9271816,0.00018288000001120963
199.42721712,199.42739104,0.00017392000000882035
199.92740512,199.92759232,0.0001871999999991658
200.42762352,200.42780272,0.00017919999999094216
200.92782272,200.92799856,0.0001758399999971516
201.42802624,201.42821664,0.0001903999999797179
201.92821792,201.92839568,0.00017775999998548286
202.42841088,202.4286048,0.00019391999998674692
202.92858896,202.92876,0.00017103999999790176
203.42878624,203.4289728,0.0001865600000030554
203.92897744,203.92915008,0.0001726399999881778
204.42918144,204.42935776,0.00017631999998002357
204.92936864,204.92954768,0.0001790400000061254
205.42957568,205.42975488,0.00017919999999094216
205.92976112,205.92994048,0.00017936000000418062
206.42996976,206.43015904,0.00018928000000073553
206.93016816,206.93034256,0.00017440000002011402
207.43036864,207.43054672,0.00017807999998353807
207.9305408,207.93071136,0.0001705600000150298
208.43074752,208.43093568,0.00018815999999333144
208.93094144,208.9311232,0.00018176000000380554
209.43114976,209.43131536,0.0001656000000025415
209.93131824,209.93149984,0.00018159999999056708
210.43152096,210.43170368,0.00018271999999797117
210.93171984,210.93189856,0.0001787200000080702
211.43192688,211.43211968,0.00019280000000776454
211.93212528,211.93230256,0.0001772800000026109
212.43231936,212.43249968,0.00018031999999834625
212.93249328,212.93266608,0.00017280000000141627
213.43269424,213.43288416,0.00018991999999684595
213.93288912,213.9330608,0.00017167999999401218
214.43307808,214.43325536,0.0001772800000026109
214.93326064,214.93343616,0.0001755200000275181
215.43347728,215.43366496,0.00018767999998203777
215.93367424,215.93385184,0.00017760000000066611
